<<PMCA SPECTRUM>>
TAG - Pb_Fluor_Co57_CdTe
DESCRIPTION - Pb Fluorescence with 57Co taken with XR-100T-CdTe
GAIN - 2
THRESHOLD - 21
LIVE_MODE - 0
PRESET_TIME - 0
LIVE_TIME - 2483.186667
REAL_TIME - 2483.906667
START_TIME - 
SERIAL_NUMBER - 0
<<CALIBRATION>>
LABEL - keV
67 10.55
494 75
<<ROI>>
74 87
334 348
488 501
<<DATA>>
0
0
0
0
0
0
0
0
0
0
0
0
0
0
0
0
0
0
72
77
160
190
182
169
128
107
77
87
75
85
82
81
79
70
68
70
75
96
96
135
118
121
94
82
89
115
139
150
127
90
69
82
80
79
63
57
81
93
115
104
73
61
74
96
142
266
560
1059
921
494
175
78
68
69
83
64
75
119
174
291
560
785
724
381
181
87
65
56
31
46
60
68
81
77
93
110
106
89
76
62
43
53
52
38
48
39
46
35
44
45
40
36
30
29
44
45
26
42
39
32
41
21
32
45
42
36
31
30
34
33
34
37
34
40
38
38
37
34
41
32
49
61
87
124
158
118
105
60
29
40
33
31
28
35
31
31
21
28
32
32
34
36
60
62
81
65
45
36
32
34
21
30
35
24
32
34
30
35
33
29
31
32
42
30
23
32
27
34
20
31
30
26
31
23
40
18
28
19
24
27
33
30
25
20
33
30
33
28
25
27
40
32
23
29
29
26
23
25
30
36
29
29
26
22
37
25
35
33
33
24
30
30
24
21
21
24
23
29
31
21
23
33
30
28
27
31
29
31
37
24
39
26
28
29
43
27
19
29
38
20
33
35
27
40
30
41
20
41
39
29
51
46
49
50
55
65
64
55
36
30
35
37
35
47
42
57
54
55
64
71
74
79
62
45
47
52
70
103
129
124
105
115
79
62
70
92
95
103
97
102
105
128
143
179
186
152
103
81
73
74
103
147
148
126
117
154
204
221
214
166
104
71
49
45
41
56
55
62
93
162
231
292
337
281
170
101
49
40
22
24
28
30
29
22
28
31
19
33
25
23
24
22
19
18
20
19
25
30
23
35
25
35
21
36
30
35
36
51
42
54
42
54
37
38
40
44
38
40
50
41
42
44
24
30
34
37
29
28
35
47
32
34
35
62
60
72
74
75
61
64
49
38
36
27
36
30
33
29
26
26
33
41
38
43
41
30
35
21
40
31
35
29
33
30
38
28
27
22
29
35
32
39
42
29
39
40
28
32
35
33
45
29
32
40
36
31
36
45
43
31
38
46
37
60
62
62
69
59
69
79
81
96
105
117
130
167
180
305
461
654
872
912
843
550
339
190
142
122
155
175
205
340
509
753
1136
1264
1267
872
498
231
100
42
21
21
21
13
14
13
6
16
11
8
11
8
4
4
9
3
7
4
8
7
4
7
6
5
2
4
8
12
5
11
6
9
12
9
8
13
15
12
8
8
6
15
12
14
9
14
22
27
22
18
28
33
25
50
69
94
162
152
181
176
154
128
91
52
37
22
17
15
9
12
16
21
30
44
52
58
58
57
29
18
17
17
8
4
5
0
0
3
3
1
5
4
4
4
3
5
0
0
2
4
1
2
1
2
2
1
2
1
1
3
2
5
1
2
1
0
0
1
2
2
2
0
1
2
0
0
1
3
0
2
1
2
1
3
0
0
1
1
1
0
1
0
2
0
0
0
0
2
1
1
2
0
3
0
0
1
1
0
3
0
2
0
1
0
1
0
0
0
0
1
0
0
0
1
0
0
0
0
0
0
0
0
0
0
0
1
0
0
0
0
0
0
0
0
0
0
1
0
0
0
0
0
0
0
0
0
0
0
0
0
0
0
0
2
0
0
0
0
0
0
0
0
0
0
0
0
0
0
0
0
0
0
0
0
0
0
0
0
0
0
0
1
0
0
0
0
0
0
1
0
0
0
0
0
0
0
0
0
0
0
0
0
0
0
0
0
0
0
0
0
0
0
0
0
0
0
0
0
0
0
0
0
0
0
0
0
0
0
0
0
0
0
0
0
0
0
0
0
0
0
0
0
0
0
0
0
2
0
0
0
0
0
0
0
0
0
0
0
0
0
0
0
0
0
0
0
0
0
0
0
0
0
0
0
0
0
0
0
0
0
0
0
0
0
0
0
0
0
0
0
0
0
0
0
0
0
0
0
0
0
0
0
0
0
0
0
0
0
0
0
0
0
0
0
0
0
0
0
0
0
0
0
0
0
0
0
0
0
0
0
0
0
0
0
0
0
0
0
0
0
0
1
0
0
0
0
0
0
0
0
0
0
0
0
0
0
0
0
0
0
0
0
0
0
0
0
0
0
0
0
0
0
0
0
0
0
0
0
0
0
0
0
0
0
0
0
0
0
0
0
0
0
0
0
0
0
0
0
0
0
0
0
0
0
0
0
0
0
0
0
0
0
0
0
0
0
0
0
0
0
0
0
0
0
0
0
0
0
0
0
0
0
0
0
0
0
0
0
0
0
0
0
0
0
0
0
0
0
0
0
0
0
0
0
0
0
0
0
0
0
0
0
<<END>>
